{
   "AcquisitionDateTime": "2017-02-28T11:59:15.452500", 
   "BodyPartExamined": "BRAIN", 
   "ConversionSoftware": "dcm2niix", 
   "ConversionSoftwareVersion": "v1.0.20170403 (OpenJPEG build) GCC4.8.4", 
   "EchoTime": 0.069, 
   "EffectiveEchoSpacing": 0.000329997, 
   "FlipAngle": 90, 
   "ImageType": [
      "ORIGINAL", 
      "PRIMARY", 
      "DIFFUSION", 
      "NONE", 
      "ND", 
      "NORM", 
      "MOSAIC"
   ], 
   "MagneticFieldStrength": 3, 
   "Manufacturer": "Siemens", 
   "ManufacturersModelName": "Prisma", 
   "PhaseEncodingDirection": "j-", 
   "ProcedureStepDescription": "RM_CEREBRAL", 
   "ProtocolName": "DIFFUSION_DTI", 
   "RepetitionTime": 4.8, 
   "ScanningSequence": "EP", 
   "SequenceName": "_ep_b0", 
   "SequenceVariant": "SK_SP", 
   "SeriesDescription": "DIFFUSION_DTI", 
   "SliceTiming": [
      3.505, 
      0, 
      2.39, 
      0.16, 
      2.55, 
      0.32, 
      2.71, 
      0.48, 
      2.87, 
      0.6375, 
      3.0275, 
      0.7975, 
      3.1875, 
      0.9575, 
      3.3475, 
      1.275, 
      3.665, 
      1.435, 
      3.825, 
      1.595, 
      3.985, 
      1.7525, 
      4.1425, 
      1.9125, 
      4.3025, 
      2.0725, 
      4.4625, 
      2.2325, 
      4.6225, 
      1.1175, 
      3.505, 
      0, 
      2.39, 
      0.16, 
      2.55, 
      0.32, 
      2.71, 
      0.48, 
      2.87, 
      0.6375, 
      3.0275, 
      0.7975, 
      3.1875, 
      0.9575, 
      3.3475, 
      1.275, 
      3.665, 
      1.435, 
      3.825, 
      1.595, 
      3.985, 
      1.7525, 
      4.1425, 
      1.9125, 
      4.3025, 
      2.0725, 
      4.4625, 
      2.2325, 
      4.6225, 
      1.1175
   ], 
   "dcmmeta_affine": [
      [
         6, 
         -0.07948285341262817, 
         -0.06302051991224289, 
         119.29222869873047
      ], 
      [
         -0.07912569493055344, 
         6, 
         -0.016378866508603096, 
         -86.36843872070312
      ], 
      [
         -0.05700429528951645, 
         0.012610162608325481, 
         6, 
         -33.455081939697266
      ], 
      [
         0.0, 
         0.0, 
         0.0, 
         1.0
      ]
   ], 
   "dcmmeta_reorient_transform": [
      [
         0.0, 
         -1.0, 
         0.0, 
         105.0
      ], 
      [
         1.0, 
         0.0, 
         0.0, 
         0.0
      ], 
      [
         0.0, 
         0.0, 
         1.0, 
         0.0
      ], 
      [
         0.0, 
         0.0, 
         0.0, 
         1.0
      ]
   ], 
   "dcmmeta_shape": [
      106, 
      106, 
      60, 
      74
   ], 
   "dcmmeta_slice_dim": 2, 
   "dcmmeta_version": 0.6, 
   "global": {
      "const": {
         "AccessionNumber": "3100261601", 
         "AcquisitionMatrix": [
            106, 
            0, 
            0, 
            106
         ], 
         "AngioFlag": "N", 
         "BitsAllocated": 16, 
         "BitsStored": 12, 
         "BodyPartExamined": "BRAIN", 
         "Columns": 848, 
         "CsaImage.AcquisitionMatrixText": "106p*106", 
         "CsaImage.BandwidthPerPixelPhaseEncode": 28.588, 
         "CsaImage.EchoColumnPosition": 53, 
         "CsaImage.EchoLinePosition": 53, 
         "CsaImage.EchoPartitionPosition": 32, 
         "CsaImage.ImaAbsTablePosition": [
            0, 
            0, 
            -1306
         ], 
         "CsaImage.ImaCoilString": "HEA;HEP", 
         "CsaImage.ImaPATModeText": "p2 s2", 
         "CsaImage.ImaRelTablePosition": [
            0, 
            0, 
            0
         ], 
         "CsaImage.ImageHistory": [
            "ChannelMixing:ND=true_CMM=1_CDM=1", 
            "CC:SoS", 
            "NormalizeAlgo:PreScan", 
            "", 
            "", 
            ""
         ], 
         "CsaImage.ImageType4MF": [
            "ORIGINAL", 
            "PRIMARY", 
            "DIFFUSION", 
            "NONE", 
            "", 
            ""
         ], 
         "CsaImage.MeasuredFourierLines": 0, 
         "CsaImage.MultistepIndex": 0, 
         "CsaImage.NonPlanarImage": 0, 
         "CsaImage.NumberOfImagesInMosaic": 60, 
         "CsaImage.PhaseEncodingDirectionPositive": 1, 
         "CsaImage.ProtocolSliceNumber": 0, 
         "CsaImage.RealDwellTime": 2700, 
         "CsaImage.SequenceMask": 134217733, 
         "CsaImage.SliceMeasurementDuration": 380000.0, 
         "CsaImage.SliceNormalVector": [
            0.02604153, 
            0.00676793, 
            0.99963795
         ], 
         "CsaImage.SlicePosition_PCS": [
            -885.64489956, 
            -975.10671325, 
            -6.30404981
         ], 
         "CsaImage.UsedChannelString": "XXXXXXXXXXXXXXXXXXXXXXXXXXXXXXXX", 
         "CsaSeries.AbsTablePosition": -1306, 
         "CsaSeries.B1rms": [
            100.0, 
            2.16961837
         ], 
         "CsaSeries.B1rmsSupervision": "NO", 
         "CsaSeries.CoilForGradient": "void", 
         "CsaSeries.CoilForGradient2": "AS82", 
         "CsaSeries.CoilId": [
            255, 
            0, 
            0, 
            0, 
            0, 
            0, 
            0, 
            4865, 
            4866, 
            0, 
            0
         ], 
         "CsaSeries.CoilString": "HEA;HEP", 
         "CsaSeries.DICOMAcquisitionContrast": "", 
         "CsaSeries.DICOMImageFlavor": "", 
         "CsaSeries.EchoTrainLength": 40, 
         "CsaSeries.FlowCompensation": "No", 
         "CsaSeries.GradientDelayTime": [
            35.0, 
            35.0, 
            31.0
         ], 
         "CsaSeries.GradientEchoTrainLength": 40, 
         "CsaSeries.GradientMode": "Fast", 
         "CsaSeries.Isocentered": 0, 
         "CsaSeries.Laterality4MF": "U", 
         "CsaSeries.LongModelName": "NUMARIS/4", 
         "CsaSeries.MiscSequenceParam": [
            40, 
            1, 
            74, 
            0, 
            0, 
            0, 
            0, 
            0, 
            0, 
            0, 
            0, 
            0, 
            0, 
            0, 
            0, 
            0, 
            0, 
            0, 
            0, 
            0, 
            0, 
            0, 
            0, 
            0, 
            524288, 
            256, 
            0, 
            0, 
            0, 
            0, 
            2, 
            12939, 
            0, 
            0, 
            0, 
            0, 
            0, 
            0
         ], 
         "CsaSeries.MrProtocolVersion": 51130001, 
         "CsaSeries.NumberOfPrescans": 0, 
         "CsaSeries.Operation_mode_flag": 0, 
         "CsaSeries.PATModeText": "p2 s2", 
         "CsaSeries.PatReinPattern": "1;HFS;78.00;48.00;1;0;0;85813186", 
         "CsaSeries.PhaseGradientAmplitude": 0.0, 
         "CsaSeries.PhaseSliceOversampling": "NONE", 
         "CsaSeries.PositivePCSDirections": "+LPH", 
         "CsaSeries.ProtocolChangeHistory": 0, 
         "CsaSeries.RFEchoTrainLength": 1, 
         "CsaSeries.RFSWDMostCriticalAspect": "Head", 
         "CsaSeries.RFSWDOperationMode": 0, 
         "CsaSeries.ReadoutGradientAmplitude": 0.0, 
         "CsaSeries.ReadoutOS": 2.0, 
         "CsaSeries.RelTablePosition": [
            0, 
            0, 
            0
         ], 
         "CsaSeries.RfWatchdogMask": 0, 
         "CsaSeries.SARMostCriticalAspect": [
            3.2, 
            2.04627305, 
            0.0
         ], 
         "CsaSeries.SW_korr_faktor": 1.0, 
         "CsaSeries.SafetyStandard": "IEC", 
         "CsaSeries.Sed": [
            1000000.0, 
            216.69663407, 
            184.12616435
         ], 
         "CsaSeries.SelectionGradientAmplitude": 0.0, 
         "CsaSeries.SequenceFileOwner": "SIEMENS", 
         "CsaSeries.SliceArrayConcatenations": 1, 
         "CsaSeries.SliceResolution": 1.0, 
         "CsaSeries.Stim_faktor": 1.0, 
         "CsaSeries.Stim_lim": [
            42.70069885, 
            23.97319984, 
            36.48099899
         ], 
         "CsaSeries.Stim_max_ges_norm_online": 0.698524, 
         "CsaSeries.Stim_max_online": [
            4.01715279, 
            0.04904988, 
            25.25058174
         ], 
         "CsaSeries.Stim_mon_mode": 2, 
         "CsaSeries.TablePositionOrigin": [
            0, 
            0, 
            -1306
         ], 
         "CsaSeries.TalesReferencePower": 1396.093675, 
         "CsaSeries.TransmitterCalibration": 271.789415, 
         "CsaSeries.dBdt_limit": 0.0, 
         "CsaSeries.dBdt_max": 0.0, 
         "CsaSeries.dBdt_thresh": 0.0, 
         "CsaSeries.t_puls_max": 0.0, 
         "DerivationDescription": "Decompress Pegasus JPEG Lossless", 
         "EchoNumbers": 1, 
         "EchoTime": 69.0, 
         "EchoTrainLength": 40, 
         "FlipAngle": 90.0, 
         "HighBit": 11, 
         "ImageOrientationPatient": [
            0.99898948504721, 
            0.03646662432084, 
            -0.0262715449821, 
            -0.0366312307223, 
            0.99931195217997, 
            -0.0058116405618
         ], 
         "ImagePositionPatient": [
            -885.64489956434, 
            -975.10671325432, 
            -6.3040498075447
         ], 
         "ImageType": [
            "ORIGINAL", 
            "PRIMARY", 
            "DIFFUSION", 
            "NONE", 
            "ND", 
            "NORM", 
            "MOSAIC"
         ], 
         "ImagedNucleus": "1H", 
         "ImagingFrequency": 123.26109, 
         "InPlanePhaseEncodingDirection": "COL", 
         "MRAcquisitionType": "2D", 
         "MagneticFieldStrength": 3.0, 
         "Manufacturer": "SIEMENS", 
         "ManufacturerModelName": "Prisma", 
         "ModalitiesInStudy": [
            "MR", 
            "SR"
         ], 
         "Modality": "MR", 
         "NumberOfAverages": 1.0, 
         "NumberOfPhaseEncodingSteps": 80, 
         "NumberOfStudyRelatedInstances": 758, 
         "PercentPhaseFieldOfView": 100.0, 
         "PercentSampling": 100.0, 
         "PerformedProcedureStepStartTime": "114914.513000", 
         "PhotometricInterpretation": "MONOCHROME2", 
         "PixelBandwidth": 1745.0, 
         "PixelRepresentation": 0, 
         "PixelSpacing": [
            2.1698112487793, 
            2.1698112487793
         ], 
         "ProcedureCodeSequence": [
            {
               "CodeValue": "RM1"
            }
         ], 
         "ProtocolName": "DIFFUSION  DTI", 
         "ReferencedStudySequence": [
            {
               "ReferencedSOPClassUID": "1.2.840.10008.3.1.2.3.1", 
               "ReferencedSOPInstanceUID": "1.2.840.113564.9.1.20060215144412.20170221151546.23100261601"
            }
         ], 
         "RepetitionTime": 4800.0, 
         "RequestAttributesSequence": [
            {
               "RequestedProcedureID": "3100261601", 
               "ScheduledProcedureStepDescription": "RM CEREBRAL", 
               "ScheduledProcedureStepID": "3100261601", 
               "ScheduledProtocolCodeSequence": [
                  {
                     "CodeMeaning": "RM CABEZA, AR", 
                     "CodeValue": "71142", 
                     "CodingSchemeDesignator": "DSS_MESA"
                  }
               ]
            }
         ], 
         "RequestedProcedureCodeSequence": [
            {
               "CodeValue": "RM1"
            }
         ], 
         "RequestingService": "NC", 
         "Rows": 848, 
         "SAR": 0.47755649102026, 
         "SamplesPerPixel": 1, 
         "ScanOptions": [
            "PFP", 
            "SFS"
         ], 
         "ScanningSequence": "EP", 
         "SequenceVariant": [
            "SK", 
            "SP"
         ], 
         "SeriesDescription": "DIFFUSION  DTI", 
         "SeriesNumber": 6, 
         "SeriesTime": "120105.201000", 
         "SliceLocation": -35.964968638421, 
         "SliceThickness": 2.2000000476837, 
         "SmallestImagePixelValue": 0, 
         "SoftwareVersions": "syngo MR E11", 
         "SpacingBetweenSlices": 6, 
         "SpecificCharacterSet": "ISO_IR 100", 
         "StudyID": "3100261601", 
         "StudyTime": "114914.398000", 
         "TransmitCoilName": "Body", 
         "VariableFlipAngleFlag": "N", 
         "WindowCenterWidthExplanation": "Algo1", 
         "dBdt": 0.0
      }, 
      "slices": {}
   }, 
   "time": {
      "samples": {
         "AcquisitionNumber": [
            1, 
            2, 
            3, 
            4, 
            5, 
            6, 
            7, 
            8, 
            9, 
            10, 
            11, 
            12, 
            13, 
            14, 
            15, 
            16, 
            17, 
            18, 
            19, 
            20, 
            21, 
            22, 
            23, 
            24, 
            25, 
            26, 
            27, 
            28, 
            29, 
            30, 
            31, 
            32, 
            33, 
            34, 
            35, 
            36, 
            37, 
            38, 
            39, 
            40, 
            41, 
            42, 
            43, 
            44, 
            45, 
            46, 
            47, 
            48, 
            49, 
            50, 
            51, 
            52, 
            53, 
            54, 
            55, 
            56, 
            57, 
            58, 
            59, 
            60, 
            61, 
            62, 
            63, 
            64, 
            65, 
            66, 
            67, 
            68, 
            69, 
            70, 
            71, 
            72, 
            73, 
            74
         ], 
         "AcquisitionTime": [
            "115915.452500", 
            "115920.252500", 
            "115925.052500", 
            "115929.852500", 
            "115934.652500", 
            "115939.452500", 
            "115944.252500", 
            "115949.052500", 
            "115953.852500", 
            "115958.652500", 
            "120003.452500", 
            "120008.252500", 
            "120013.052500", 
            "120017.852500", 
            "120022.652500", 
            "120027.452500", 
            "120032.252500", 
            "120037.052500", 
            "120041.852500", 
            "120046.652500", 
            "120051.452500", 
            "120056.252500", 
            "120101.052500", 
            "120105.852500", 
            "120110.652500", 
            "120115.452500", 
            "120120.252500", 
            "120125.052500", 
            "120129.852500", 
            "120134.652500", 
            "120139.452500", 
            "120144.252500", 
            "120149.052500", 
            "120153.852500", 
            "120158.652500", 
            "120203.452500", 
            "120208.252500", 
            "120213.052500", 
            "120217.852500", 
            "120222.652500", 
            "120227.452500", 
            "120232.252500", 
            "120237.052500", 
            "120241.852500", 
            "120246.652500", 
            "120251.452500", 
            "120256.252500", 
            "120301.052500", 
            "120305.852500", 
            "120310.652500", 
            "120315.452500", 
            "120320.252500", 
            "120325.052500", 
            "120329.852500", 
            "120334.652500", 
            "120339.452500", 
            "120344.252500", 
            "120349.052500", 
            "120353.852500", 
            "120358.652500", 
            "120403.452500", 
            "120408.252500", 
            "120413.052500", 
            "120417.852500", 
            "120422.652500", 
            "120427.452500", 
            "120432.252500", 
            "120437.052500", 
            "120441.852500", 
            "120446.652500", 
            "120451.452500", 
            "120456.252500", 
            "120501.052500", 
            "120505.852500"
         ], 
         "ContentTime": [
            "120105.205000", 
            "120105.209000", 
            "120105.212000", 
            "120105.219000", 
            "120105.223000", 
            "120105.226000", 
            "120105.230000", 
            "120105.233000", 
            "120105.236000", 
            "120105.239000", 
            "120105.242000", 
            "120105.246000", 
            "120105.249000", 
            "120105.252000", 
            "120105.255000", 
            "120105.266000", 
            "120105.269000", 
            "120105.273000", 
            "120105.276000", 
            "120105.279000", 
            "120105.282000", 
            "120105.286000", 
            "120105.289000", 
            "120245.199000", 
            "120245.203000", 
            "120245.207000", 
            "120245.210000", 
            "120245.213000", 
            "120245.216000", 
            "120245.220000", 
            "120245.223000", 
            "120245.226000", 
            "120245.229000", 
            "120245.232000", 
            "120245.236000", 
            "120245.239000", 
            "120245.242000", 
            "120245.246000", 
            "120245.249000", 
            "120245.252000", 
            "120245.255000", 
            "120245.259000", 
            "120245.262000", 
            "120245.274000", 
            "120425.199000", 
            "120425.208000", 
            "120425.211000", 
            "120425.214000", 
            "120425.218000", 
            "120425.221000", 
            "120425.224000", 
            "120425.228000", 
            "120425.231000", 
            "120425.234000", 
            "120425.237000", 
            "120425.241000", 
            "120425.244000", 
            "120425.247000", 
            "120425.250000", 
            "120425.253000", 
            "120425.257000", 
            "120425.260000", 
            "120425.263000", 
            "120425.266000", 
            "120425.270000", 
            "120509.345000", 
            "120509.373000", 
            "120509.376000", 
            "120509.379000", 
            "120509.383000", 
            "120509.386000", 
            "120509.390000", 
            "120509.393000", 
            "120509.396000"
         ], 
         "CsaImage.B_matrix": [
            null, 
            [
               992.0, 
               -6.0, 
               -5.0, 
               1.0, 
               0.0, 
               0.0
            ], 
            [
               1.0, 
               0.0, 
               -1.0, 
               1003.0, 
               -8.0, 
               1.0
            ], 
            [
               1.0, 
               17.0, 
               18.0, 
               426.0, 
               488.0, 
               564.0
            ], 
            [
               347.0, 
               453.0, 
               -143.0, 
               592.0, 
               -187.0, 
               61.0
            ], 
            [
               56.0, 
               -124.0, 
               189.0, 
               279.0, 
               -425.0, 
               654.0
            ], 
            [
               791.0, 
               -235.0, 
               319.0, 
               70.0, 
               -94.0, 
               131.0
            ], 
            [
               629.0, 
               -107.0, 
               -460.0, 
               19.0, 
               77.0, 
               340.0
            ], 
            [
               55.0, 
               -218.0, 
               -63.0, 
               868.0, 
               256.0, 
               77.0
            ], 
            [
               869.0, 
               -136.0, 
               -293.0, 
               22.0, 
               45.0, 
               101.0
            ], 
            [
               254.0, 
               426.0, 
               85.0, 
               718.0, 
               143.0, 
               29.0
            ], 
            [
               119.0, 
               293.0, 
               136.0, 
               722.0, 
               336.0, 
               157.0
            ], 
            [
               207.0, 
               289.0, 
               281.0, 
               403.0, 
               392.0, 
               384.0
            ], 
            [
               236.0, 
               -191.0, 
               373.0, 
               155.0, 
               -302.0, 
               597.0
            ], 
            [
               378.0, 
               416.0, 
               244.0, 
               457.0, 
               268.0, 
               160.0
            ], 
            [
               331.0, 
               -64.0, 
               -460.0, 
               13.0, 
               88.0, 
               643.0
            ], 
            [
               678.0, 
               -432.0, 
               168.0, 
               276.0, 
               -107.0, 
               43.0
            ], 
            [
               791.0, 
               41.0, 
               391.0, 
               3.0, 
               20.0, 
               194.0
            ], 
            [
               84.0, 
               157.0, 
               225.0, 
               297.0, 
               425.0, 
               610.0
            ], 
            [
               14.0, 
               111.0, 
               27.0, 
               930.0, 
               230.0, 
               58.0
            ], 
            [
               635.0, 
               325.0, 
               -348.0, 
               167.0, 
               -178.0, 
               192.0
            ], 
            [
               263.0, 
               -432.0, 
               -84.0, 
               710.0, 
               139.0, 
               29.0
            ], 
            [
               617.0, 
               125.0, 
               -461.0, 
               26.0, 
               -93.0, 
               346.0
            ], 
            [
               893.0, 
               225.0, 
               -191.0, 
               57.0, 
               -47.0, 
               43.0
            ], 
            [
               55.0, 
               -183.0, 
               -131.0, 
               617.0, 
               445.0, 
               323.0
            ], 
            [
               1.0, 
               -5.0, 
               -20.0, 
               38.0, 
               187.0, 
               947.0
            ], 
            [
               47.0, 
               207.0, 
               -41.0, 
               917.0, 
               -182.0, 
               38.0
            ], 
            [
               594.0, 
               468.0, 
               -140.0, 
               369.0, 
               -110.0, 
               34.0
            ], 
            [
               26.0, 
               58.0, 
               144.0, 
               130.0, 
               327.0, 
               829.0
            ], 
            [
               22.0, 
               108.0, 
               -96.0, 
               539.0, 
               -483.0, 
               434.0
            ], 
            [
               783.0, 
               -373.0, 
               -163.0, 
               178.0, 
               77.0, 
               36.0
            ], 
            [
               313.0, 
               133.0, 
               -439.0, 
               57.0, 
               -186.0, 
               618.0
            ], 
            [
               144.0, 
               57.0, 
               341.0, 
               23.0, 
               133.0, 
               816.0
            ], 
            [
               94.0, 
               -63.0, 
               -281.0, 
               42.0, 
               188.0, 
               850.0
            ], 
            [
               110.0, 
               -45.0, 
               304.0, 
               19.0, 
               -124.0, 
               854.0
            ], 
            [
               920.0, 
               -259.0, 
               35.0, 
               73.0, 
               -9.0, 
               3.0
            ], 
            [
               912.0, 
               201.0, 
               176.0, 
               45.0, 
               38.0, 
               36.0
            ], 
            [
               204.0, 
               402.0, 
               -27.0, 
               794.0, 
               -53.0, 
               5.0
            ], 
            [
               592.0, 
               486.0, 
               61.0, 
               399.0, 
               50.0, 
               8.0
            ], 
            [
               499.0, 
               -291.0, 
               -399.0, 
               170.0, 
               232.0, 
               321.0
            ], 
            [
               476.0, 
               12.0, 
               489.0, 
               1.0, 
               14.0, 
               506.0
            ], 
            [
               461.0, 
               -362.0, 
               338.0, 
               284.0, 
               -265.0, 
               249.0
            ], 
            [
               21.0, 
               -103.0, 
               93.0, 
               530.0, 
               -482.0, 
               442.0
            ], 
            [
               543.0, 
               289.0, 
               397.0, 
               155.0, 
               211.0, 
               293.0
            ], 
            [
               11.0, 
               85.0, 
               55.0, 
               680.0, 
               453.0, 
               305.0
            ], 
            [
               339.0, 
               349.0, 
               -314.0, 
               360.0, 
               -324.0, 
               295.0
            ], 
            [
               8.0, 
               -30.0, 
               80.0, 
               116.0, 
               -314.0, 
               861.0
            ], 
            [
               303.0, 
               -437.0, 
               137.0, 
               632.0, 
               -199.0, 
               64.0
            ], 
            [
               696.0, 
               386.0, 
               241.0, 
               214.0, 
               133.0, 
               84.0
            ], 
            [
               131.0, 
               204.0, 
               -264.0, 
               319.0, 
               -413.0, 
               540.0
            ], 
            [
               34.0, 
               73.0, 
               -163.0, 
               158.0, 
               -353.0, 
               797.0
            ], 
            [
               516.0, 
               -500.0, 
               1.0, 
               485.0, 
               -1.0, 
               1.0
            ], 
            [
               187.0, 
               -296.0, 
               250.0, 
               470.0, 
               -398.0, 
               339.0
            ], 
            [
               251.0, 
               -347.0, 
               -255.0, 
               481.0, 
               354.0, 
               263.0
            ], 
            [
               30.0, 
               -88.0, 
               -142.0, 
               263.0, 
               427.0, 
               698.0
            ], 
            [
               213.0, 
               -197.0, 
               -354.0, 
               183.0, 
               327.0, 
               592.0
            ], 
            [
               147.0, 
               311.0, 
               -166.0, 
               659.0, 
               -352.0, 
               191.0
            ], 
            [
               504.0, 
               -179.0, 
               458.0, 
               64.0, 
               -162.0, 
               419.0
            ], 
            [
               68.0, 
               -230.0, 
               98.0, 
               787.0, 
               -337.0, 
               145.0
            ], 
            [
               1.0, 
               0.0, 
               2.0, 
               8.0, 
               -81.0, 
               976.0
            ], 
            [
               2.0, 
               34.0, 
               -15.0, 
               818.0, 
               -380.0, 
               179.0
            ], 
            [
               322.0, 
               175.0, 
               428.0, 
               95.0, 
               232.0, 
               571.0
            ], 
            [
               79.0, 
               43.0, 
               -263.0, 
               23.0, 
               -141.0, 
               883.0
            ], 
            [
               516.0, 
               -439.0, 
               -232.0, 
               374.0, 
               197.0, 
               106.0
            ], 
            [
               71.0, 
               -256.0, 
               21.0, 
               925.0, 
               -76.0, 
               7.0
            ], 
            null, 
            null, 
            null, 
            null, 
            null, 
            null, 
            null, 
            null, 
            null
         ], 
         "CsaImage.B_value": [
            0, 
            1000, 
            1000, 
            1000, 
            1000, 
            1000, 
            1000, 
            1000, 
            1000, 
            1000, 
            1000, 
            1000, 
            1000, 
            1000, 
            1000, 
            1000, 
            1000, 
            1000, 
            1000, 
            1000, 
            1000, 
            1000, 
            1000, 
            1000, 
            1000, 
            1000, 
            1000, 
            1000, 
            1000, 
            1000, 
            1000, 
            1000, 
            1000, 
            1000, 
            1000, 
            1000, 
            1000, 
            1000, 
            1000, 
            1000, 
            1000, 
            1000, 
            1000, 
            1000, 
            1000, 
            1000, 
            1000, 
            1000, 
            1000, 
            1000, 
            1000, 
            1000, 
            1000, 
            1000, 
            1000, 
            1000, 
