{
   "AcquisitionDateTime": "2017-02-28T12:05:26.545000", 
   "BodyPartExamined": "BRAIN", 
   "ConversionSoftware": "dcm2niix", 
   "ConversionSoftwareVersion": "v1.0.20170403 (OpenJPEG build) GCC4.8.4", 
   "EchoTime": 0.022, 
   "EffectiveEchoSpacing": 0.000349999, 
   "FlipAngle": 90, 
   "ImageType": [
      "ORIGINAL", 
      "PRIMARY", 
      "M", 
      "ND", 
      "NORM", 
      "MOSAIC"
   ], 
   "MagneticFieldStrength": 3, 
   "Manufacturer": "Siemens", 
   "ManufacturersModelName": "Prisma", 
   "PhaseEncodingDirection": "j-", 
   "ProcedureStepDescription": "RM_CEREBRAL", 
   "ProtocolName": "RESTING_STATE", 
   "RepetitionTime": 2.72, 
   "ScanningSequence": "EP", 
   "SequenceName": "_epfid2d1_96", 
   "SequenceVariant": "SK", 
   "SeriesDescription": "RESTING_STATE", 
   "SliceTiming": [
      2.645, 
      2.59, 
      2.5375, 
      2.4825, 
      2.43, 
      2.375, 
      2.32, 
      2.2675, 
      2.2125, 
      2.16, 
      2.105, 
      2.05, 
      1.9975, 
      1.9425, 
      1.89, 
      1.835, 
      1.78, 
      1.7275, 
      1.6725, 
      1.62, 
      1.565, 
      1.51, 
      1.4575, 
      1.4025, 
      1.35, 
      1.295, 
      1.24, 
      1.1875, 
      1.1325, 
      1.08, 
      1.025, 
      0.97, 
      0.9175, 
      0.8625, 
      0.81, 
      0.755, 
      0.7, 
      0.6475, 
      0.5925, 
      0.54, 
      0.485, 
      0.4325, 
      0.3775, 
      0.3225, 
      0.27, 
      0.215, 
      0.1625, 
      0.1075, 
      0.0525, 
      0
   ], 
   "TaskName": "rest", 
   "dcmmeta_affine": [
      [
         6, 
         -0.09157807379961014, 
         -0.0802079364657402, 
         124.5642318725586
      ], 
      [
         -0.09116656333208084, 
         6, 
         -0.02084583044052124, 
         -89.70687866210938
      ], 
      [
         -0.06567886471748352, 
         0.014529101550579071, 
         6, 
         -37.41938400268555
      ], 
      [
         0.0, 
         0.0, 
         0.0, 
         1.0
      ]
   ], 
   "dcmmeta_reorient_transform": [
      [
         0.0, 
         -1.0, 
         0.0, 
         95.0
      ], 
      [
         1.0, 
         0.0, 
         0.0, 
         0.0
      ], 
      [
         0.0, 
         0.0, 
         1.0, 
         0.0
      ], 
      [
         0.0, 
         0.0, 
         0.0, 
         1.0
      ]
   ], 
   "dcmmeta_shape": [
      96, 
      96, 
      50, 
      200
   ], 
   "dcmmeta_slice_dim": 2, 
   "dcmmeta_version": 0.6, 
   "global": {
      "const": {
         "AccessionNumber": "3100261601", 
         "AcquisitionMatrix": [
            96, 
            0, 
            0, 
            96
         ], 
         "AngioFlag": "N", 
         "BitsAllocated": 16, 
         "BitsStored": 12, 
         "BodyPartExamined": "BRAIN", 
         "Columns": 768, 
         "CsaImage.AcquisitionMatrixText": "96*96", 
         "CsaImage.BandwidthPerPixelPhaseEncode": 29.762, 
         "CsaImage.EchoColumnPosition": 48, 
         "CsaImage.EchoLinePosition": 48, 
         "CsaImage.EchoPartitionPosition": 32, 
         "CsaImage.GSWDDataType": "predicted", 
         "CsaImage.ImaAbsTablePosition": [
            0, 
            0, 
            -1306
         ], 
         "CsaImage.ImaCoilString": "HEA;HEP", 
         "CsaImage.ImaPATModeText": "p2", 
         "CsaImage.ImaRelTablePosition": [
            0, 
            0, 
            0
         ], 
         "CsaImage.ImageHistory": [
            "ChannelMixing:ND=true_CMM=1_CDM=1", 
            "CC:SoS", 
            "NormalizeAlgo:PreScan", 
            "", 
            "", 
            ""
         ], 
         "CsaImage.MeasuredFourierLines": 0, 
         "CsaImage.MultistepIndex": 0, 
         "CsaImage.NonPlanarImage": 0, 
         "CsaImage.NumberOfImagesInMosaic": 50, 
         "CsaImage.PhaseEncodingDirectionPositive": 1, 
         "CsaImage.ProtocolSliceNumber": 0, 
         "CsaImage.RFSWDDataType": "predicted", 
         "CsaImage.RealDwellTime": 3200, 
         "CsaImage.SequenceMask": 134217733, 
         "CsaImage.SliceMeasurementDuration": 554000.0, 
         "CsaImage.SliceNormalVector": [
            0.02604155, 
            0.00676799, 
            0.99963795
         ], 
         "CsaImage.SlicePosition_PCS": [
            -924.24524815, 
            -1017.68371426, 
            -9.08924481
         ], 
         "CsaImage.UsedChannelString": "XXXXXXXXXXXXXXXXXXXXXXXXXXXXXXXX", 
         "CsaSeries.AbsTablePosition": -1306, 
         "CsaSeries.B1rms": [
            100.0, 
            1.16076387
         ], 
         "CsaSeries.B1rmsSupervision": "NO", 
         "CsaSeries.CoilForGradient": "void", 
         "CsaSeries.CoilForGradient2": "AS82", 
         "CsaSeries.CoilId": [
            255, 
            0, 
            0, 
            0, 
            0, 
            0, 
            0, 
            4865, 
            4866, 
            0, 
            0
         ], 
         "CsaSeries.CoilString": "HEA;HEP", 
         "CsaSeries.DICOMAcquisitionContrast": "", 
         "CsaSeries.DICOMImageFlavor": "", 
         "CsaSeries.EchoTrainLength": 47, 
         "CsaSeries.FlowCompensation": "No", 
         "CsaSeries.GradientDelayTime": [
            35.0, 
            35.0, 
            31.0
         ], 
         "CsaSeries.GradientEchoTrainLength": 47, 
         "CsaSeries.GradientMode": "Fast", 
         "CsaSeries.Isocentered": 0, 
         "CsaSeries.Laterality4MF": "U", 
         "CsaSeries.LongModelName": "NUMARIS/4", 
         "CsaSeries.MiscSequenceParam": [
            0, 
            0, 
            0, 
            0, 
            0, 
            0, 
            0, 
            0, 
            0, 
            0, 
            0, 
            0, 
            0, 
            0, 
            0, 
            0, 
            0, 
            0, 
            0, 
            0, 
            0, 
            0, 
            0, 
            0, 
            4096, 
            256, 
            0, 
            0, 
            0, 
            0, 
            0, 
            40498, 
            0, 
            0, 
            0, 
            0, 
            0, 
            0
         ], 
         "CsaSeries.MrProtocolVersion": 51130001, 
         "CsaSeries.NumberOfPrescans": 0, 
         "CsaSeries.Operation_mode_flag": 0, 
         "CsaSeries.PATModeText": "p2", 
         "CsaSeries.PatReinPattern": "1;HFS;78.00;48.00;1;0;0;85813186", 
         "CsaSeries.PhaseGradientAmplitude": 0.0, 
         "CsaSeries.PhaseSliceOversampling": "NONE", 
         "CsaSeries.PositivePCSDirections": "+LPH", 
         "CsaSeries.ProtocolChangeHistory": 0, 
         "CsaSeries.RFEchoTrainLength": 0, 
         "CsaSeries.RFSWDMostCriticalAspect": "Head", 
         "CsaSeries.RFSWDOperationMode": 0, 
         "CsaSeries.ReadoutGradientAmplitude": 0.0, 
         "CsaSeries.ReadoutOS": 2.0, 
         "CsaSeries.RelTablePosition": [
            0, 
            0, 
            0
         ], 
         "CsaSeries.RfWatchdogMask": 0, 
         "CsaSeries.SARMostCriticalAspect": [
            3.2, 
            0.58571271, 
            0.0
         ], 
         "CsaSeries.SW_korr_faktor": 1.0, 
         "CsaSeries.SafetyStandard": "IEC", 
         "CsaSeries.Sed": [
            1000000.0, 
            259.81840286, 
            259.81840286
         ], 
         "CsaSeries.SelectionGradientAmplitude": 0.0, 
         "CsaSeries.SequenceFileOwner": "SIEMENS", 
         "CsaSeries.SliceArrayConcatenations": 1, 
         "CsaSeries.SliceResolution": 1.0, 
         "CsaSeries.Stim_faktor": 1.0, 
         "CsaSeries.Stim_lim": [
            42.70069885, 
            23.97319984, 
            36.48099899
         ], 
         "CsaSeries.Stim_max_ges_norm_online": 0.70084876, 
         "CsaSeries.Stim_max_online": [
            4.71861029, 
            0.21925533, 
            25.24564552
         ], 
         "CsaSeries.Stim_mon_mode": 2, 
         "CsaSeries.TablePositionOrigin": [
            0, 
            0, 
            -1306
         ], 
         "CsaSeries.TalesReferencePower": 1396.093675, 
         "CsaSeries.TransmitterCalibration": 271.789415, 
         "CsaSeries.dBdt_limit": 0.0, 
         "CsaSeries.dBdt_max": 0.0, 
         "CsaSeries.dBdt_thresh": 0.0, 
         "CsaSeries.t_puls_max": 0.0, 
         "DerivationDescription": "Decompress Pegasus JPEG Lossless", 
         "EchoNumbers": 1, 
         "EchoTime": 22.0, 
         "EchoTrainLength": 47, 
         "FlipAngle": 90.0, 
         "HighBit": 11, 
         "ImageOrientationPatient": [
            0.99898948504721, 
            0.03646662432084, 
            -0.0262715449821, 
            -0.0366312307223, 
            0.99931195217997, 
            -0.0058116405618
         ], 
         "ImagePositionPatient": [
            -924.24524814512, 
            -1017.6837142635, 
            -9.089244813671
         ], 
         "ImageType": [
            "ORIGINAL", 
            "PRIMARY", 
            "M", 
            "ND", 
            "NORM", 
            "MOSAIC"
         ], 
         "ImagedNucleus": "1H", 
         "ImagingFrequency": 123.261094, 
         "InPlanePhaseEncodingDirection": "COL", 
         "MRAcquisitionType": "2D", 
         "MagneticFieldStrength": 3.0, 
         "Manufacturer": "SIEMENS", 
         "ManufacturerModelName": "Prisma", 
         "ModalitiesInStudy": [
            "MR", 
            "SR"
         ], 
         "Modality": "MR", 
         "NumberOfAverages": 1.0, 
         "NumberOfPhaseEncodingSteps": 95, 
         "NumberOfStudyRelatedInstances": 758, 
         "PercentPhaseFieldOfView": 100.0, 
         "PercentSampling": 100.0, 
         "PerformedProcedureStepStartTime": "114914.513000", 
         "PhotometricInterpretation": "MONOCHROME2", 
         "PixelBandwidth": 1630.0, 
         "PixelRepresentation": 0, 
         "PixelSpacing": [
            2.5, 
            2.5
         ], 
         "ProcedureCodeSequence": [
            {
               "CodeValue": "RM1"
            }
         ], 
         "ProtocolName": "RESTING STATE", 
         "ReferencedStudySequence": [
            {
               "ReferencedSOPClassUID": "1.2.840.10008.3.1.2.3.1", 
               "ReferencedSOPInstanceUID": "1.2.840.113564.9.1.20060215144412.20170221151546.23100261601"
            }
         ], 
         "RepetitionTime": 2720.0, 
         "RequestAttributesSequence": [
            {
               "RequestedProcedureID": "3100261601", 
               "ScheduledProcedureStepDescription": "RM CEREBRAL", 
               "ScheduledProcedureStepID": "3100261601", 
               "ScheduledProtocolCodeSequence": [
                  {
                     "CodeMeaning": "RM CABEZA, AR", 
                     "CodeValue": "71142", 
                     "CodingSchemeDesignator": "DSS_MESA"
                  }
               ]
            }
         ], 
         "RequestedProcedureCodeSequence": [
            {
               "CodeValue": "RM1"
            }
         ], 
         "RequestingService": "NC", 
         "Rows": 768, 
         "SAR": 0.13669285496057, 
         "SamplesPerPixel": 1, 
         "ScanOptions": "FS", 
         "ScanningSequence": "EP", 
         "SequenceName": "*epfid2d1_96", 
         "SequenceVariant": "SK", 
         "SeriesDescription": "RESTING STATE", 
         "SeriesNumber": 12, 
         "SeriesTime": "120548.562000", 
         "SliceLocation": -40.042534251435, 
         "SliceThickness": 2.7999999523163, 
         "SmallestImagePixelValue": 0, 
         "SoftwareVersions": "syngo MR E11", 
         "SpacingBetweenSlices": 6, 
         "SpecificCharacterSet": "ISO_IR 100", 
         "StudyID": "3100261601", 
         "StudyTime": "114914.398000", 
         "TransmitCoilName": "Body", 
         "VariableFlipAngleFlag": "N", 
         "WindowCenterWidthExplanation": "Algo1", 
         "dBdt": 0.0
      }, 
      "slices": {}
   }, 
   "time": {
      "samples": {
         "AcquisitionNumber": [
            1, 
            2, 
            3, 
            4, 
            5, 
            6, 
            7, 
            8, 
            9, 
            10, 
            11, 
            12, 
            13, 
            14, 
            15, 
            16, 
            17, 
            18, 
            19, 
            20, 
            21, 
            22, 
            23, 
            24, 
            25, 
            26, 
            27, 
            28, 
            29, 
            30, 
            31, 
            32, 
            33, 
            34, 
            35, 
            36, 
            37, 
            38, 
            39, 
            40, 
            41, 
            42, 
            43, 
            44, 
            45, 
            46, 
            47, 
            48, 
            49, 
            50, 
            51, 
            52, 
            53, 
            54, 
            55, 
            56, 
            57, 
            58, 
            59, 
            60, 
            61, 
            62, 
            63, 
            64, 
            65, 
            66, 
            67, 
            68, 
            69, 
            70, 
            71, 
            72, 
            73, 
            74, 
            75, 
            76, 
            77, 
            78, 
            79, 
            80, 
            81, 
            82, 
            83, 
            84, 
            85, 
            86, 
            87, 
            88, 
            89, 
            90, 
            91, 
            92, 
            93, 
            94, 
            95, 
            96, 
            97, 
            98, 
            99, 
            100, 
            101, 
            102, 
            103, 
            104, 
            105, 
            106, 
            107, 
            108, 
            109, 
            110, 
            111, 
            112, 
            113, 
            114, 
            115, 
            116, 
            117, 
            118, 
            119, 
            120, 
            121, 
            122, 
            123, 
            124, 
            125, 
            126, 
            127, 
            128, 
            129, 
            130, 
            131, 
            132, 
            133, 
            134, 
            135, 
            136, 
            137, 
            138, 
            139, 
            140, 
            141, 
            142, 
            143, 
            144, 
            145, 
            146, 
            147, 
            148, 
            149, 
            150, 
            151, 
            152, 
            153, 
            154, 
            155, 
            156, 
            157, 
            158, 
            159, 
            160, 
            161, 
            162, 
            163, 
            164, 
            165, 
            166, 
            167, 
            168, 
            169, 
            170, 
            171, 
            172, 
            173, 
            174, 
            175, 
            176, 
            177, 
            178, 
            179, 
            180, 
            181, 
            182, 
            183, 
            184, 
            185, 
            186, 
            187, 
            188, 
            189, 
            190, 
            191, 
            192, 
            193, 
            194, 
            195, 
            196, 
            197, 
            198, 
            199, 
            200
         ], 
         "AcquisitionTime": [
            "120526.545000", 
            "120529.265000", 
            "120531.985000", 
            "120534.705000", 
            "120537.425000", 
            "120540.145000", 
            "120542.865000", 
            "120545.585000", 
            "120548.305000", 
            "120551.025000", 
            "120553.745000", 
            "120556.465000", 
            "120559.185000", 
            "120601.905000", 
            "120604.625000", 
            "120607.345000", 
            "120610.065000", 
            "120612.785000", 
            "120615.505000", 
            "120618.225000", 
            "120620.945000", 
            "120623.665000", 
            "120626.385000", 
            "120629.105000", 
            "120631.825000", 
            "120634.545000", 
            "120637.265000", 
            "120639.985000", 
            "120642.705000", 
            "120645.425000", 
            "120648.145000", 
            "120650.865000", 
            "120653.585000", 
            "120656.305000", 
            "120659.025000", 
            "120701.745000", 
            "120704.465000", 
            "120707.185000", 
            "120709.905000", 
            "120712.625000", 
            "120715.345000", 
            "120718.065000", 
            "120720.785000", 
            "120723.505000", 
            "120726.225000", 
            "120728.945000", 
            "120731.665000", 
            "120734.385000", 
            "120737.105000", 
            "120739.825000", 
            "120742.545000", 
            "120745.265000", 
            "120747.985000", 
            "120750.705000", 
            "120753.425000", 
            "120756.145000", 
            "120758.865000", 
            "120801.585000", 
            "120804.305000", 
            "120807.025000", 
            "120809.745000", 
            "120812.465000", 
            "120815.185000", 
            "120817.905000", 
            "120820.625000", 
            "120823.345000", 
            "120826.065000", 
            "120828.785000", 
            "120831.505000", 
            "120834.225000", 
            "120836.945000", 
            "120839.665000", 
            "120842.385000", 
            "120845.105000", 
            "120847.825000", 
            "120850.545000", 
            "120853.265000", 
            "120855.985000", 
            "120858.705000", 
            "120901.425000", 
            "120904.145000", 
            "120906.865000", 
            "120909.585000", 
            "120912.305000", 
            "120915.025000", 
            "120917.745000", 
            "120920.465000", 
            "120923.185000", 
            "120925.905000", 
            "120928.625000", 
            "120931.345000", 
            "120934.065000", 
            "120936.785000", 
            "120939.505000", 
            "120942.225000", 
            "120944.945000", 
            "120947.665000", 
            "120950.385000", 
            "120953.105000", 
            "120955.825000", 
            "120958.545000", 
            "121001.265000", 
            "121003.985000", 
            "121006.705000", 
            "121009.425000", 
            "121012.145000", 
            "121014.865000", 
            "121017.585000", 
            "121020.305000", 
            "121023.025000", 
            "121025.745000", 
            "121028.465000", 
            "121031.185000", 
            "121033.905000", 
            "121036.625000", 
            "121039.345000", 
            "121042.065000", 
            "121044.785000", 
            "121047.505000", 
            "121050.225000", 
            "121052.945000", 
            "121055.665000", 
            "121058.385000", 
            "121101.105000", 
            "121103.825000", 
            "121106.545000", 
            "121109.265000", 
            "121111.985000", 
            "121114.705000", 
            "121117.425000", 
            "121120.145000", 
            "121122.865000", 
            "121125.585000", 
            "121128.305000", 
            "121131.025000", 
            "121133.745000", 
            "121136.465000", 
            "121139.185000", 
            "121141.905000", 
            "121144.625000", 
            "121147.345000", 
            "121150.065000", 
            "121152.785000", 
            "121155.505000", 
            "121158.225000", 
            "121200.945000", 
            "121203.665000", 
            "121206.385000", 
            "121209.105000", 
            "121211.825000", 
            "121214.545000", 
            "121217.265000", 
            "121219.985000", 
            "121222.705000", 
            "121225.425000", 
            "121228.145000", 
            "121230.865000", 
            "121233.585000", 
            "121236.305000", 
            "121239.025000", 
            "121241.745000", 
            "121244.465000", 
            "121247.185000", 
            "121249.905000", 
            "121252.625000", 
            "121255.345000", 
            "121258.065000", 
            "121300.785000", 
            "121303.505000", 
            "121306.225000", 
            "121308.945000", 
            "121311.665000", 
            "121314.385000", 
            "121317.105000", 
            "121319.825000", 
            "121322.545000", 
            "121325.265000", 
            "121327.985000", 
            "121330.705000", 
            "121333.425000", 
            "121336.145000", 
            "121338.865000", 
            "121341.585000", 
            "121344.305000", 
            "121347.025000", 
            "121349.745000", 
            "121352.465000", 
            "121355.185000", 
            "121357.905000", 
            "121400.625000", 
            "121403.345000", 
            "121406.065000", 
            "121408.785000", 
            "121411.505000", 
            "121414.225000", 
            "121416.945000", 
            "121419.665000", 
            "121422.385000", 
            "121425.105000", 
            "121427.825000"
         ], 
         "ContentTime": [
            "120548.589000", 
            "120548.593000", 
            "120548.596000", 
            "120548.599000", 
            "120548.606000", 
            "120548.609000", 
            "120548.612000", 
            "120548.615000", 
            "120648.562000", 
            "120648.565000", 
            "120648.568000", 
            "120648.571000", 
            "120648.574000", 
            "120648.577000", 
            "120648.579000", 
            "120648.582000", 
            "120648.585000", 
            "120648.588000", 
            "120648.591000", 
            "120648.594000", 
            "120648.597000", 
            "120648.600000", 
            "120648.603000", 
            "120648.606000", 
            "120648.609000", 
            "120648.611000", 
            "120648.614000", 
            "120648.617000", 
            "120648.627000", 
            "120648.630000", 
            "120748.561000", 
            "120748.564000", 
            "120748.567000", 
            "120748.570000", 
            "120748.572000", 
            "120748.576000", 
            "120748.578000", 
            "120748.581000", 
            "120748.584000", 
            "120748.587000", 
            "120748.590000", 
            "120748.593000", 
            "120748.596000", 
            "120748.599000", 
            "120748.602000", 
            "120748.605000", 
            "120748.607000", 
            "120748.610000", 
            "120748.613000", 
            "120748.616000", 
            "120748.619000", 
            "120748.622000", 
            "120848.562000", 
            "120848.565000", 
            "120848.568000", 
            "120848.571000", 
            "120848.574000", 
            "120848.576000", 
            "120848.579000", 
            "120848.582000", 
            "120848.585000", 
            "120848.588000", 
            "120848.591000", 
            "120848.594000", 
            "120848.597000", 
            "120848.600000", 
            "120848.603000", 
            "120848.606000", 
            "120848.609000", 
            "120848.611000", 
            "120848.614000", 
            "120848.617000", 
            "120848.620000", 
            "120848.623000", 
            "120948.561000", 
            "120948.564000", 
            "120948.567000", 
            "120948.570000", 
            "120948.573000", 
            "120948.576000", 
            "120948.579000", 
            "120948.582000", 
            "120948.585000", 
            "120948.588000", 
            "120948.591000", 
            "120948.594000", 
            "120948.597000", 
            "120948.600000", 
            "120948.603000", 
            "120948.606000", 
            "120948.609000", 
            "120948.612000", 
            "120948.615000", 
            "120948.617000", 
            "120948.620000", 
            "120948.623000", 
            "121048.561000", 
            "121048.564000", 
            "121048.567000", 
            "121048.570000", 
            "121048.573000", 
            "121048.576000", 
            "121048.578000", 
            "121048.581000", 
            "121048.585000", 
            "121048.588000", 
            "121048.591000", 
            "121048.594000", 
            "121048.597000", 
            "121048.600000", 
            "121048.603000", 
            "121048.606000", 
            "121048.609000", 
            "121048.611000", 
            "121048.614000", 
            "121048.617000", 
            "121048.620000", 
            "121048.623000", 
            "121148.561000", 
            "121148.564000", 
            "121148.567000", 
            "121148.570000", 
            "121148.572000", 
            "121148.575000", 
            "121148.578000", 
            "121148.581000", 
            "121148.584000", 
            "121148.587000", 
            "121148.596000", 
            "121148.599000", 
            "121148.602000", 
            "121148.605000", 
            "121148.608000", 
            "121148.611000", 
            "121148.614000", 
            "121148.617000", 
            "121148.620000", 
            "121148.623000", 
            "121148.626000", 
            "121148.628000", 
            "121148.632000", 
            "121248.561000", 
            "121248.564000", 
            "121248.567000", 
            "121248.570000", 
            "121248.573000", 
            "121248.576000", 
            "121248.579000", 
            "121248.584000", 
            "121248.587000", 
            "121248.590000", 
            "121248.593000", 
            "121248.596000", 
            "121248.599000", 
            "121248.602000", 
            "121248.604000", 
            "121248.607000", 
            "121248.610000", 
            "121248.613000", 
            "121248.616000", 
            "121248.619000", 
            "121248.622000", 
            "121248.625000", 
            "121348.562000", 
            "121348.565000", 
            "121348.568000", 
            "121348.571000", 
            "121348.574000", 
            "121348.577000", 
            "121348.581000", 
            "121348.586000", 
            "121348.590000", 
            "121348.593000", 
            "121348.597000", 
            "121348.600000", 
            "121348.603000", 
            "121348.606000", 
            "121348.609000", 
            "121348.612000", 
            "121348.615000", 
            "121348.619000", 
            "121348.622000", 
            "121348.625000", 
            "121348.627000", 
            "121348.631000", 
            "121428.903000", 
            "121428.906000", 
            "121428.909000", 
            "121428.912000", 
            "121428.915000", 
            "121428.918000", 
            "121428.921000", 
            "121428.924000", 
            "121428.927000", 
            "121428.930000", 
            "121428.933000", 
            "121428.942000", 
            "121428.946000", 
            "121428.952000", 
            "121428.956000"
         ], 
         "CsaImage.ICE_Dims": [
            "X_1_1_1_1_1_1_50_1_1_1_1_157", 
            "X_1_1_1_2_1_1_50_1_1_1_1_157", 
            "X_1_1_1_3_1_1_50_1_1_1_1_157", 
            "X_1_1_1_4_1_1_50_1_1_1_1_157", 
            "X_1_1_1_5_1_1_50_1_1_1_1_157", 
            "X_1_1_1_6_1_1_50_1_1_1_1_157", 
            "X_1_1_1_7_1_1_50_1_1_1_1_157", 
            "X_1_1_1_8_1_1_50_1_1_1_1_157", 
            "X_1_1_1_9_1_1_50_1_1_1_1_157", 
            "X_1_1_1_10_1_1_50_1_1_1_1_157", 
            "X_1_1_1_11_1_1_50_1_1_1_1_157", 
            "X_1_1_1_12_1_1_50_1_1_1_1_157", 
            "X_1_1_1_13_1_1_50_1_1_1_1_157", 
            "X_1_1_1_14_1_1_50_1_1_1_1_157", 
            "X_1_1_1_15_1_1_50_1_1_1_1_157", 
            "X_1_1_1_16_1_1_50_1_1_1_1_157", 
            "X_1_1_1_17_1_1_50_1_1_1_1_157", 
            "X_1_1_1_18_1_1_50_1_1_1_1_157", 
            "X_1_1_1_19_1_1_50_1_1_1_1_157", 
            "X_1_1_1_20_1_1_50_1_1_1_1_157", 
            "X_1_1_1_21_1_1_50_1_1_1_1_157", 
            "X_1_1_1_22_1_1_50_1_1_1_1_157", 
            "X_1_1_1_23_1_1_50_1_1_1_1_157", 
            "X_1_1_1_24_1_1_50_1_1_1_1_157", 
            "X_1_1_1_25_1_1_50_1_1_1_1_157", 
            "X_1_1_1_26_1_1_50_1_1_1_1_157", 
            "X_1_1_1_27_1_1_50_1_1_1_1_157", 
            "X_1_1_1_28_1_1_50_1_1_1_1_157", 
            "X_1_1_1_29_1_1_50_1_1_1_1_157", 
            "X_1_1_1_30_1_1_50_1_1_1_1_157", 
            "X_1_1_1_31_1_1_50_1_1_1_1_157", 
            "X_1_1_1_32_1_1_50_1_1_1_1_157", 
            "X_1_1_1_33_1_1_50_1_1_1_1_157", 
            "X_1_1_1_34_1_1_50_1_1_1_1_157", 
            "X_1_1_1_35_1_1_50_1_1_1_1_157", 
            "X_1_1_1_36_1_1_50_1_1_1_1_157", 
            "X_1_1_1_37_1_1_50_1_1_1_1_157", 
            "X_1_1_1_38_1_1_50_1_1_1_1_157", 
            "X_1_1_1_39_1_1_50_1_1_1_1_157", 
            "X_1_1_1_40_1_1_50_1_1_1_1_157", 
            "X_1_1_1_41_1_1_50_1_1_1_1_157", 
            "X_1_1_1_42_1_1_50_1_1_1_1_157", 
            "X_1_1_1_43_1_1_50_1_1_1_1_157", 
            "X_1_1_1_44_1_1_50_1_1_1_1_157", 
            "X_1_1_1_45_1_1_50_1_1_1_1_157", 
            "X_1_1_1_46_1_1_50_1_1_1_1_157", 
            "X_1_1_1_47_1_1_50_1_1_1_1_157", 
            "X_1_1_1_48_1_1_50_1_1_1_1_157", 
            "X_1_1_1_49_1_1_50_1_1_1_1_157", 
            "X_1_1_1_50_1_1_50_1_1_1_1_157", 
            "X_1_1_1_51_1_1_50_1_1_1_1_157", 
            "X_1_1_1_52_1_1_50_1_1_1_1_157", 
